phase.day RVsim
0 0.6303253185259
0.0223918479332497 0.631196224867069
0.167504994804403 0.636857840470188
0.31261814167533 0.642550168502387
0.457731288546711 0.648273517048547
0.602844435417865 0.654028197221888
0.747957582289075 0.659814523156299
0.770349430222268 0.660710227269205
0.915462577093422 0.66653347661681
1.06057572396458 0.672389058674517
1.20568887083573 0.678277297018535
1.35080201770688 0.684198518178759
1.49591516457815 0.690153051612891
1.64102831144928 0.696141229676225
1.66342015938244 0.697068259983545
1.80853330625359 0.703095691227937
1.95364645312475 0.709157492771123
2.09875959999613 0.715254005856462
2.24387274686705 0.721385574446263
2.38898589373832 0.727552545164093
2.41137774167146 0.728507321692951
2.53409904060953 0.73375526723065
2.55649088854261 0.73471559167526
2.70160403541377 0.740960019249877
2.84671718228492 0.74724095898128
2.9918303291563 0.753558767781432
3.13694347602734 0.759913804813481
3.28205662289855 0.766306431386788
3.30444847083163 0.767296223715505
3.42716976976977 0.772737010842273
3.44956161770278 0.773732692015532
3.59467476457394 0.780207534966495
3.73978791144509 0.786721119847225
3.88490105831647 0.793273815536081
4.03001420518763 0.799865992349135
4.17512735205884 0.806498021865124
4.19751919999226 0.807524957697446
4.34263234686296 0.814203452833443
4.48774549373411 0.820922604545445
4.63285864060549 0.827682787082313
4.77797178747664 0.834484375065459
4.92308493434791 0.841327743230294
5.06819808121907 0.848213266147869
5.09058992915243 0.849279522697049
5.23570307602313 0.856214170210505
5.38081622289428 0.863191777421558
5.52592936976589 0.870212716316791
5.67104251663682 0.877277357323584
5.81615566350808 0.884386068909114
5.83854751144099 0.8854869349714
5.96126881037929 0.891539217150442
5.9836606583126 0.892646972487441
6.1287738051833 0.899851865648991
6.27388695205468 0.907101973777053
6.41900009892606 0.9143976522367
6.5641132457971 0.921739251866652
6.70922639266837 0.929127118368996
6.73161824060116 0.93027125371859
6.85433953953954 0.936561591656824
6.87673138747277 0.937712948586128
7.02184453434393 0.945201634491019
7.16695768121485 0.952737636442738
7.31207082808623 0.960321271295479
7.45718397495739 0.967952846888689
7.6022971218286 0.975632661129809
7.62468896976179 0.976822018095598
7.76980211663295 0.984557870593953
7.9149152635041 0.992342565078978
8.06002841037525 1.00017636139402
8.20514155724641 1.00805950492689
8.35025470411767 1.01599222532606
8.49536785098883 1.02397473513107
8.51775969892196 1.02521093214388
8.66287284579312 1.03325115407447
8.80798599266427 1.04134155814801
8.95309913953565 1.04948229289652
9.09821228640658 1.05767348300397
9.24332543327785 1.06591522739689
9.26571728121098 1.06719148628839
9.38843858014907 1.07420759720818
9.41083042808214 1.07549167236119
9.55594357495329 1.08384252855835
9.70105672182444 1.09224405857165
9.84616986869582 1.10069623095022
9.99128301556686 1.10919897644331
10.1363961624381 1.11775218516783
10.1587880103712 1.11907648266048
10.2815093093093 1.1263557035886
10.3039011572423 1.12768774754993
10.4490143041135 1.13634908641538
10.5941274509848 1.14506024046813
10.739240597856 1.15382089637616
10.8843537447272 1.16263068232853
11.0294668915984 1.17148916384089
11.0518587395318 1.17286038743891
11.1969718864025 1.18177445029702
11.3420850332736 1.19073603832911
11.487198180145 1.19974448866684
11.6323113270162 1.20879905518597
11.7774244738874 1.21789890268816
11.9225376207586 1.22704310070232
11.944929468692 1.22845799169285
12.0900426155627 1.23765209332557
12.2351557624338 1.24688818559398
12.3802689093054 1.25616499218562
12.5253820561763 1.26548111113759
12.6704952030476 1.27483500626185
12.6928870509805 1.27628162849575
12.8156083499188 1.28422499801699
12.8380001978521 1.28567703095261
12.9831133447233 1.29510640036272
13.1282264915942 1.30456771453087
13.2733396384656 1.31405877509652
13.4184527853367 1.323577195722
13.5635659322079 1.33312038953349
13.5859577801407 1.33459499297769
13.7086790790791 1.34268555577049
13.7310709270123 1.34416328587706
13.8761840738835 1.35375003373696
14.0212972207546 1.36335192566035
14.1664103676258 1.37296538904976
14.3115235144969 1.38258657246838
14.4566366613681 1.39221132746043
14.4790285093013 1.39369652313616
14.6241416561725 1.4033198282621
14.7692548030436 1.41293666650936
14.9143679499148 1.42254182079516
15.0594810967859 1.43212968919347
15.2045942436572 1.44169426055331
15.3497073905284 1.45122908875303
15.3720992384615 1.45269728699343
15.5172123853326 1.4621891620241
15.6623255322038 1.47163579933097
15.8074386790752 1.48102919591409
15.9525518259461 1.49036079125269
16.0976649728174 1.4996214338604
16.1200568207505 1.50104347231928
16.2427781196886 1.50880134626353
16.2651699676217 1.51021001492613
16.4102831144928 1.51928371487004
16.555396261364 1.52825331969585
16.7005094082353 1.53710683021228
16.8456225551065 1.54583145906427
16.9907357019777 1.55441358790227
17.0131275499107 1.55572425749406
17.1358488488488 1.56283872325643
17.1582406967818 1.56412381878718
17.303353843653 1.57234850935741
17.4484669905244 1.58038179535711
17.5935801373955 1.58820612199631
17.7386932842667 1.59580286604301
17.8838064311379 1.60315228825691
17.9061982790713 1.60426300245006
18.051311425942 1.61130087343596
18.1964245728132 1.61804488541294
18.3415377196845 1.62447147430988
18.4866508665557 1.6305557722751
18.631764013427 1.63627156821078
18.7768771602981 1.64159127221405
18.7992690082315 1.64237502458139
18.9443821551022 1.64720136907214
19.0894953019733 1.65156736406401
19.2346084488449 1.65544090030294
19.3797215957159 1.65878840877154
19.5248347425871 1.66157486458537
19.54722659052 1.66195255266225
19.6699478894584 1.66376380333115
19.6923397373916 1.6640459527563
19.8374528842628 1.66549799574093
19.9825660311337 1.66626924175678
20.1276791780051 1.66631896660505
20.2727923248763 1.66560525145619
20.4179054717474 1.66408509595285
20.4402973196802 1.66377590758398
20.5630186186186 1.66171455701292
20.5854104665518 1.6612701836424
20.730523613423 1.65786239985601
20.8756367602941 1.65350718827952
21.0207499071653 1.64815886907079
21.1658630540364 1.64177171844159
21.3109762009076 1.63430027173697
21.3333680488408 1.63304793566145
21.478481195712 1.62426915059596
21.6235943425831 1.61431064809278
21.7687074894543 1.60313016850963
21.9138206363255 1.59068734874444
22.0589337831967 1.57694420020088
22.2040469300679 1.56186561268995
22.226438778001 1.5594178840059
22.3715519248722 1.54275861207514
22.5166650717433 1.52470052914057
22.6617782186147 1.50522109517314
22.8068913654856 1.48430287899349
22.9520045123569 1.46193408211206
22.97439636029 1.45835280401587
23.0971176592281 1.43810903538024
23.1195095071612 1.4343029595781
23.2646226540323 1.4087985374652
23.4097358009035 1.38184855731076
23.5548489477749 1.35346941604751
23.699962094646 1.32368513780996
23.8450752415172 1.29252753375417
23.8674670894502 1.28759984876219
23.9901883883884 1.26003626221458
24.0125802363214 1.25490681648317
24.1576933831925 1.22093558430247
24.3028065300639 1.18574240883062
24.447919676935 1.1493908608374
24.5930328238062 1.1119514201014
24.7381459706774 1.07350096138864
24.7605378186108 1.06748299411048
24.9056509654815 1.02796861571405
25.0507641123527 0.987627542896377
25.1958772592241 0.94655238531695
25.3409904060952 0.904839067030808
25.4861035529665 0.862585934561734
25.6312166998377 0.819892842860134
25.653608547771 0.81327227874181
25.7987216946417 0.770196222603991
25.9438348415129 0.726896156246815
26.0889479883845 0.683470778150355
26.2340611352554 0.640016664339801
26.3791742821267 0.59662752038264
26.4015661300596 0.589943914947925
26.5242874289979 0.553393508364426
26.5466792769312 0.546741613307948
26.6917924238023 0.50379334575885
26.8369055706735 0.461179752684516
26.9820187175446 0.4189763753389
27.1271318644158 0.377253352029915
27.2722450112869 0.336075203640446
27.2946368592197 0.329773525683376
27.4173581581581 0.295500704277524
27.4397500060913 0.289297036702547
27.5848631529625 0.249484833079752
27.7299762998337 0.210383232980045
27.8750894467048 0.172032885787872
28.020202593576 0.134468923247865
28.1653157404472 0.0977211570395388
28.1877075883804 0.0921250884411726
28.3328207352515 0.0563498956139766
28.4779338821227 0.0214381955954364
28.6230470289938 -0.0125953068346012
28.768160175865 -0.0457400869631808
28.9132733227362 -0.0779894869583562
29.0583864696074 -0.109340399958005
29.0807783175405 -0.114097987497547
29.2258914644117 -0.144412124686013
29.3710046112828 -0.173831677750166
29.5161177581542 -0.202362715730193
29.6612309050251 -0.23001360730698
29.8063440518964 -0.256794749503025
29.8287358998296 -0.260850541909174
29.9514571987677 -0.282718311677062
29.9738490467007 -0.286642959121818
30.1189621935719 -0.311593734461242
30.2640753404432 -0.335718062449273
30.4091884873144 -0.359032210378584
30.5543016341855 -0.381553331308498
30.6994147810568 -0.403299293370014
30.7218066289897 -0.406586966495888
30.8445279279279 -0.424288524831606
30.8669197758609 -0.427461099622632
31.012032922732 -0.447600288365221
31.1571460696034 -0.467023711192767
31.3022592164746 -0.485750713098723
31.4473723633457 -0.503800707995882
31.592485510217 -0.521193092683557
31.6148773581504 -0.523819515020014
31.7599905050211 -0.540476809242319
31.9051036518922 -0.556517880533856
32.0502167987636 -0.571961623071828
32.1953299456347 -0.586826661289958
32.340443092506 -0.601131309951604
32.4855562393772 -0.614893540787276
32.5079480873105 -0.616969961427936
32.6530612341817 -0.630127935927191
32.7981743810524 -0.642780921584152
32.943287527924 -0.654945652133037
33.0884006747949 -0.666638436034703
33.2335138216662 -0.677875147334809
33.2559056695991 -0.679569416741848
33.3786269685374 -0.688671219688245
33.4010188164707 -0.690298841952176
33.5461319633418 -0.70060489174505
33.691245110213 -0.710502043278323
33.8363582570842 -0.720004330968867
33.9814714039553 -0.729125349824467
34.1265845508265 -0.737878260268304
34.1489763987593 -0.739196924880935
34.2716976976977 -0.746275794225613
34.2940895456309 -0.747540728900043
34.439202692502 -0.755543329577457
34.5843158393732 -0.763216561130146
34.7294289862443 -0.770571854573858
34.8745421331155 -0.777620247103743
35.0196552799868 -0.784372391903343
35.0420471279199 -0.785388568281341
35.187160274791 -0.791811510038049
35.3322734216622 -0.797959897503639
35.4773865685333 -0.803843239899104
35.6224997154045 -0.80947070563345
35.7676128622758 -0.814851132890806
35.912726009147 -0.819993040171639
35.9351178570801 -0.820765754905267
36.0802310039512 -0.825642524973088
36.2253441508224 -0.830298089344685
36.3704572976937 -0.834740025984621
36.5155704445647 -0.838975635629509
36.6606835914359 -0.843011951538476
36.6830754393691 -0.843617467777347
36.8057967383072 -0.846855749021371
36.8281885862402 -0.84743214585859
36.9733017331114 -0.851061817707736
37.1184148799828 -0.854512734188789
37.2635280268539 -0.857790916690777
37.4086411737251 -0.860902165628819
37.5537543205963 -0.863852068685778
37.5761461685292 -0.864293234580355
37.6988674674674 -0.866646008793799
37.7212593154004 -0.867063575341243
37.8663724622716 -0.869683922206842
38.0114856091429 -0.872159242912798
38.1565987560141 -0.874494323928612
38.3017119028852 -0.876693777376757
38.4468250497565 -0.878762047705376
38.4692168976899 -0.879069787603589
38.6143300445606 -0.880991948040608
38.7594431914317 -0.882791960297485
38.9045563383031 -0.884473780962637
39.0496694851743 -0.886041224150398
39.1947826320455 -0.887497966991744
39.3398957789167 -0.888847554914716
39.36228762685 -0.889046481884886
39.5074007737212 -0.890276623194853
39.6525139205919 -0.891406823658839
39.7976270674635 -0.892440245616726
39.9427402143344 -0.893379939533925
40.0878533612058 -0.894228848301326
40.1102452091386 -0.894351937915192
40.232966508077 -0.894989811364724
40.2553583560102 -0.895099576879269
40.4004715028814 -0.895762424284825
40.5455846497525 -0.896343109991195
40.6906977966237 -0.896844172390436
40.8358109434948 -0.897268061893622
40.980924090366 -0.897617144277243
41.0033159382988 -0.897664494802346
41.1260372372372 -0.897893703895153
41.1484290851704 -0.897930062102924
41.2935422320415 -0.898125646267326
41.4386553789127 -0.898253366552527
41.5837685257839 -0.898315270102002
41.728881672655 -0.898313334653924
41.8739948195263 -0.898249471140428
41.8963866674594 -0.898234220349107
42.0414998143306 -0.898101164921441
42.1866129612017 -0.897910082778114
42.3317261080729 -0.897662690004103
42.476839254944 -0.897360645604739
42.6219524018153 -0.897005553610298
42.7670655486865 -0.896598965096456
42.7894573966196 -0.896531736413666
42.9345705434907 -0.896067567106182
43.0796836903619 -0.895555071870846
43.2247968372333 -0.89499564709864
43.3699099841042 -0.894390643793071
43.5150231309756 -0.893741369209379
43.6601362778467 -0.893049088428973
43.6825281257798 -0.892938514047333
43.8276412726509 -0.892198110823998
43.9727544195223 -0.89141729051891
44.1178675663934 -0.890597194816977
44.2629807132646 -0.889738929134086
44.4080938601358 -0.888843563898218
44.4304857080688 -0.888702166277712
44.553207007007 -0.88791213578072
44.5755988549399 -0.887765263661945
44.7207120018111 -0.886793454373764
44.8658251486825 -0.885787706323887
45.0109382955536 -0.88474895724657
45.1560514424248 -0.883678115745085
45.301164589296 -0.882576062297169
45.3235564372294 -0.88240328394583
45.4686695841006 -0.881266261653952
45.6137827309713 -0.880099833172863
45.7588958778426 -0.87890479642854
45.9040090247138 -0.877681925004563
46.0491221715851 -0.876431968965802
46.1942353184563 -0.875155655651162
46.2166271663896 -0.874956410752914
46.3617403132607 -0.873650548745269
46.5068534601314 -0.872319822708652
46.651966607003 -0.870964893164422
46.797079753874 -0.869586400896767
46.9421929007453 -0.868184967604747
47.0873060476165 -0.866761196530421
47.1096978955497 -0.866539548237469
47.2548110424209 -0.865090719265221
47.3999241892921 -0.863620792184691
47.5450373361632 -0.862130315880391
47.6901504830344 -0.860619823152673
47.8352636299056 -0.859089831236533
47.8576554778383 -0.858852039857909
47.9803767767767 -0.857540842301763
48.0027686247099 -0.857300163350104
48.1478817715811 -0.855729851379265
48.2929949184522 -0.854141575275903
48.4381080653234 -0.852535792768545
48.5832212121945 -0.850912948413816
48.7283343590658 -0.849273474011277
48.7507262069989 -0.849019039008234
48.8958393538701 -0.847360889189074
49.0409525007412 -0.845686998070292
49.1860656476124 -0.843997759768696
49.3311787944835 -0.84229355721718
49.4762919413548 -0.840574762510016
49.6214050882261 -0.838841737236227
49.6437969361591 -0.8385730760741
49.7889100830303 -0.836824060659791
49.9340232299014 -0.835061559458332
50.0791363767728 -0.833285902979394
50.2242495236437 -0.831497412494099
50.3693626705151 -0.829696400313594
50.5144758173863 -0.82788317005826
50.5368676653193 -0.827602308386564
50.6819808121904 -0.825775341234525
50.8270939590618 -0.823936781782461
50.972207105933 -0.822086907900964
51.1173202528041 -0.820225989794672
51.2624333996753 -0.818354290228165
51.2848252476083 -0.818064531774272
51.4075465465465 -0.816472064744367
51.4299383944794 -0.816180704383995
51.5750515413506 -0.814286637347759
51.720164688222 -0.812382571359314
51.8652778350931 -0.810468740533663
52.0103909819643 -0.808545372597192
52.1555041288356 -0.806612689071659
52.1778959767689 -0.806313648390051
52.3230091236401 -0.804370479385225
52.4681222705108 -0.80241845176541
52.6132354173822 -0.80045776862051
52.7583485642533 -0.798488627538648
52.9034617111247 -0.796511220761508
53.0485748579958 -0.794525735334883
53.0709667059291 -0.794218655000687
53.2160798528002 -0.792224070310467
53.3611929996709 -0.790221792950084
53.5063061465426 -0.788211994509156
53.6514192934135 -0.786194841957413
53.7965324402849 -0.784170497772249
53.941645587156 -0.782139120062393
53.9640374350893 -0.781825049534633
54.1091505819604 -0.779785744022152
54.2542637288316 -0.777739731314938
54.3993768757027 -0.775687156509291
54.5444900225739 -0.773628160806848
54.6896031694451 -0.771562881619819
54.7119950173778 -0.771243645388482
54.8347163163163 -0.769491452672947
54.8571081642494 -0.769171279174455
55.0022213111206 -0.767092913104196
55.1473344579917 -0.765008673290683
55.2924476048629 -0.762918682461341
55.4375607517341 -0.760823060047827
55.5826738986053 -0.758721922273109
55.6050657465385 -0.758397219923089
55.7501788934096 -0.756289856160432
55.8952920402808 -0.754177216908381
56.0404051871519 -0.752059408810441
56.1855183340231 -0.749936535636228
56.3306314808945 -0.747808698356033
56.4757446277656 -0.745675995213132
56.4981364756986 -0.74534647885038
56.6432496225698 -0.74320827769473
56.7883627694409 -0.741065413384639
56.9334759163123 -0.73891797601208
57.0785890631832 -0.736766053220605
57.2237022100546 -0.734609730267425
57.3688153569258 -0.732449090083739
57.3912072048588 -0.732115310765079
57.53632035173 -0.729949787328064
57.6814334986013 -0.727780117689973
57.8265466454725 -0.725606377820965
57.9716597923438 -0.723428641597716
58.1167729392149 -0.721246980855392
58.1391647871478 -0.720909992214278
58.2618860860861 -0.719061465438055
58.2842779340194 -0.718723888092294
58.4293910808901 -0.716534007505124
58.5745042277615 -0.714340416172172
58.7196173746327 -0.71214317797177
58.8647305215038 -0.70994235498595
59.0098436683751 -0.707738007544003
59.0322355163084 -0.707397553113393
59.1773486631796 -0.705189210147464
59.3224618100503 -0.702977466935524
59.4675749569217 -0.70076237855003
59.6126881037928 -0.698543998479051
59.7578012506642 -0.696322378663876
59.9029143975353 -0.694097569535685
59.9253062454686 -0.693753986967685
60.0704193923398 -0.691525557174372
60.2155325392105 -0.689294041747645
60.3606456860821 -0.68705948658414
60.5057588329532 -0.684821936212151
60.6508719798244 -0.682581433823354
60.7959851266956 -0.680338021303691
60.8183769746288 -0.679991592445428
60.9634901214999 -0.677744871157179
61.1086032683711 -0.675495325677182
61.2537164152423 -0.67324299396596
61.3988295621135 -0.670987912797983
61.5439427089846 -0.668730117788568
61.5663345569174 -0.66838148671138
61.6890558558558 -0.666469643419951
61.711447703789 -0.666120601900964
61.8565608506601 -0.663857076158835
62.0016739975313 -0.661590941611791
62.1467871444024 -0.659322229331526
62.2919002912736 -0.657050969358004
62.4370134381449 -0.654777190722141
62.459405286078 -0.654426110242051
62.6045184329491 -0.65214945910579
62.7496315798203 -0.649870348523801
62.8947447266914 -0.647588804486647
63.0398578735626 -0.645304852064104
63.184971020434 -0.643018515425005
63.3300841673051 -0.640729817856539
63.3524760152382 -0.640376448980099
63.4975891621093 -0.638085054003779
63.6427023089805 -0.635791345358111
63.7878154558518 -0.633495343670211
63.932928602723 -0.63119706876052
64.0780417495941 -0.628896539659658
64.2231548964653 -0.626593774624829
64.2455467443983 -0.626238245867643
64.3906598912695 -0.623932921591478
64.5357730381409 -0.621625398159843
64.680886185012 -0.619315691493189
64.8259993318833 -0.617003816802365
64.9711124787544 -0.614689788602928
64.9935043266873 -0.614332528975637
65.1162256256256 -0.612373620729125
65.138617473559 -0.612016032126131
65.2837306204297 -0.609697410741898
65.428843767301 -0.607376677235246
65.5739569141722 -0.605053843378982
65.7190700610435 -0.602728920318923
65.8641832079147 -0.600401918586144
65.886575055848 -0.60004266347705
66.0316882027191 -0.597713274626062
66.1768013495898 -0.595381827756463
66.3219144964612 -0.593048331536829
66.4670276433324 -0.590712794068575
66.6121407902037 -0.588375222896574
66.7572539370749 -0.586035625019631
66.7796457850081 -0.585674430653941
66.9247589318793 -0.583332501340979
67.06987207875 -0.58098855859267
67.2149852256216 -0.578642607750598
67.3600983724928 -0.576294653650871
67.5052115193639 -0.573944700633147
67.6503246662351 -0.571592752549546
67.6727165141683 -0.57122965509065
67.8178296610395 -0.56887540825428
67.9629428079106 -0.566519173034687
68.1080559547818 -0.564160951801921
