phase.day RVsim
0 5.77995958017206
0.693476562847991 5.80970333464875
1.22882987690491 5.83253791519284
1.76418319096183 5.85526210383221
2.2995365050192 5.87787625349897
2.83488981907624 5.90038071422484
3.37024313313337 5.92277583315437
4.06371969598104 5.95162363598497
4.59907301003841 5.97376907323405
5.13442632409533 5.99580629238373
5.66977963815248 6.01773562832552
6.20513295220962 6.03955741313217
6.74048626626673 6.06127197607045
7.43396282911453 6.08924133481237
7.96931614317145 6.11071101489448
8.5046694572286 6.13207453845884
9.04002277128575 6.15333222286112
9.57537608534301 6.17448438271654
10.1107293994001 6.19553132991171
10.804205962248 6.22263884307903
11.339559276305 6.24344545396194
11.8749125903619 6.26414786080217
12.4102659044192 6.28474636390127
12.9456192184763 6.30524126089447
13.4809725325335 6.32563284676221
14.1744490953811 6.3518942289576
14.7098024094385 6.37204977967921
15.2451557234954 6.39210297269442
15.7805090375525 6.41205409170798
16.3158623516097 6.43190341782876
16.8512156656668 6.4516512295806
17.5446922285146 6.4770813353999
18.0800455425715 6.49659717434707
18.6153988566286 6.51601239860002
19.150752170686 6.53532727569956
19.6861054847431 6.5545420706571
20.2214587988002 6.57365704596484
20.9149353616481 6.59826989264901
21.450288675705 6.61715672486696
21.9856419897621 6.63594458473816
22.5209953038193 6.65463372404747
23.0563486178764 6.67322439211302
23.5917019319336 6.69171683579551
24.2851784947816 6.71552562461384
24.8205318088385 6.73379352813389
25.3558851228954 6.75196400349269
25.8912384369526 6.77003728710242
26.4265917510098 6.78801361296685
26.9619450650669 6.80589321269042
27.6554216279146 6.82891034904457
28.1907749419715 6.84656879022374
28.7261282560287 6.86413125161079
29.2614815700861 6.88159795460307
29.7968348841432 6.89896911824423
30.3321881982003 6.9162449592325
31.0256647610481 6.93848207147686
31.561018075105 6.95553991934616
32.0963713891622 6.97250314216375
32.6317247032193 6.98937194664535
33.1670780172765 7.00614653720354
33.7024313313336 7.02282711595537
34.3959078941816 7.04429507293267
34.9312612082385 7.06076061255341
35.4666145222955 7.07713279026476
36.0019678363528 7.09341179840881
36.5373211504099 7.10959782707116
37.072674464467 7.12569106408792
37.7661510273147 7.14639999138195
38.301504341372 7.16228093621248
38.836857655429 7.1780696925513
39.3722109694861 7.19376643865006
39.9075642835433 7.20937135054662
40.4429175976004 7.22488460207143
41.1363941604482 7.24484389698082
41.6717474745051 7.26014740025651
42.2071007885622 7.27535980045064
42.7424541026194 7.2904812619828
43.2778074166766 7.30551194709765
43.8131607307337 7.32045201587053
44.5066372935817 7.33967036110879
45.0419906076386 7.35440302623933
45.5773439216955 7.36904558725232
46.1126972357529 7.38359819496912
46.64805054981 7.39806099807095
47.1834038638671 7.41243414310401
47.8768804267152 7.43091951923118
48.4122337407721 7.44508740921956
48.947587054829 7.45916610901475
49.4829403688861 7.47315575604903
50.0182936829433 7.4870564856455
50.5536469970005 7.50086843102259
51.2471235598482 7.51862812761409
51.7824768739051 7.53223677350161
52.3178301879623 7.54575705933269
52.8531835020196 7.55918910933524
53.3885368160767 7.57253304565505
53.9238901301338 7.58578898835978
54.6173666929817 7.6028296139176
55.1527200070386 7.61588402225842
55.6880733210958 7.62885081799016
56.2234266351529 7.64173011229664
56.7587799492101 7.65452201430284
57.2941332632672 7.66722663107818
57.9876098261152 7.68355412168822
58.5229631401721 7.69605878105657
59.058316454229 7.70847649351852
59.5936697682864 7.7208073573498
60.1290230823435 7.73305146878663
60.6643763964006 7.74520892202844
61.3578529592482 7.76082854876685
61.8932062733056 7.77278743529856
62.4285595873625 7.78465995967333
62.9639129014197 7.79644620737042
63.4992662154768 7.80814626184503
64.0346195295339 7.81976020453047
64.7280960923817 7.83467657961972
65.2634494064387 7.84609316158873
65.7988027204958 7.85742388583517
66.334156034553 7.86866882512898
66.8695093486102 7.87982805022775
67.4048626626673 7.89090162987808
68.0983392255152 7.90511871159211
68.6336925395722 7.9159959530208
69.1690458536291 7.92678776133053
69.7043991676865 7.93749419664477
70.2397524817435 7.94811531708229
70.7751057958007 7.95865117875798
71.4685823586483 7.97217227507277
72.0039356727057 7.98251263837329
72.5392889867626 7.99276791365783
73.0746423008197 8.00293814844153
73.6099956148769 8.01302338823863
74.145348928934 8.02302367656264
74.8388254917818 8.0358514475469
75.3741788058387 8.04565689518865
75.9095321198959 8.05537752059163
76.4448854339532 8.06501335867604
76.9802387480103 8.07456444236098
77.5155920620674 8.08403080256412
78.2090686249153 8.09616726150133
78.7444219389722 8.10543925669793
79.2797752530294 8.11462661612542
79.8151285670865 8.12372936209742
80.3504818811437 8.13274751492238
80.8858351952008 8.14168109290243
81.5793117580488 8.15312760613324
82.1146650721057 8.16186711253946
82.6500183861626 8.17052209019872
83.1853717002198 8.1790925487812
83.720725014277 8.18757849594365
84.2560783283341 8.19597993732761
84.9495548911818 8.20673722279782
85.4849082052388 8.21494470320521
86.0202615192961 8.22306768214006
86.5556148333533 8.23110615656642
87.0909681474103 8.23906012142263
87.6263214614675 8.24692956961884
88.3197980243153 8.25699769411555
88.8551513383723 8.26467310813246
89.3905046524292 8.27226396774034
89.9258579664865 8.2797702571085
90.4612112805437 8.2871919583639
90.9965645946009 8.29452905158813
91.6900411574488 8.30390742664264
92.2253944715058 8.31105022734172
92.7607477855627 8.31810833985565
93.29610109962 8.32508173544356
93.8314544136771 8.33197038330142
94.3668077277342 8.33877425055836
95.0602842905819 8.34746162699114
95.5956376046393 8.35407075650471
96.1309909186962 8.36059498241938
96.6663442327533 8.36703426294153
97.2016975468105 8.3733885541892
97.7370508608676 8.37965781018765
98.9658807377723 8.3937261553071
99.5012340518297 8.39971483772637
100.036587365887 8.40561826350753
100.571940679944 8.41143637551573
101.107293994001 8.41716911449291
102.336123870906 8.43000460895187
102.871477184963 8.43545556683106
103.40683049902 8.44082087287038
103.942183813077 8.44610045647838
104.477537127134 8.45129424490539
105.706367004039 8.46289098262865
106.241720318096 8.46780150288206
106.777073632153 8.47262589077739
107.312426946211 8.47736406203331
107.847780260268 8.4820159301704
109.076610137172 8.4923667687534
109.61196345123 8.49673359719395
110.147316765287 8.5010137258927
110.682670079344 8.50520705661456
111.218023393401 8.5093134888816
112.446853270306 8.51841002676053
112.982206584363 8.52222935783484
113.51755989842 8.52596133317403
114.052913212477 8.52960584029387
114.588266526534 8.53316276441733
115.817096403439 8.54099531520658
116.352449717496 8.54426278048499
116.887803031553 8.54744214347958
117.423156345611 8.55053327712883
117.958509659668 8.5535360520232
119.187339536573 8.56009361592065
119.72269285063 8.56280427129786
120.258046164687 8.56542598513221
120.793399478744 8.56795861542278
121.328752792801 8.57040201775995
122.557582669706 8.57567224991155
123.092935983763 8.57782056146946
123.62828929782 8.5798789971429
124.163642611877 8.58184739959422
124.698995925935 8.58372560901054
125.927825802839 8.58769478471578
126.463179116896 8.58927461319585
126.998532430954 8.59076353376912
127.533885745011 8.59216137332699
128.069239059068 8.59346795621327
129.298068935973 8.59612093284334
129.83342225003 8.59712551667154
130.368775564087 8.59803806005613
130.904128878144 8.59885837364516
131.439482192201 8.59958626546038
132.668312069106 8.60090644095051
133.203665383163 8.60132837775309
133.73901869722 8.60165703798144
134.274372011277 8.60189221552779
134.809725325335 8.60203370157281
136.038555202239 8.60200296933941
136.573908516296 8.60183419588346
137.109261830354 8.60157080279281
137.644615144411 8.60121256664955
138.179968458468 8.60075926123219
139.408798335373 8.59935796135474
139.94415164943 8.59858973184224
140.479504963487 8.59772542910033
141.014858277544 8.59676481180285
141.550211591601 8.59570763572094
142.779041468506 8.5929145022168
143.314394782563 8.5915373648563
143.84974809662 8.59006258625202
144.385101410678 8.5884899065257
144.920454724735 8.58681906278968
146.149284601639 8.58261116679896
146.684637915696 8.58061493857357
147.219991229754 8.57851938249077
147.755344543811 8.5763242194282
148.290697857868 8.57402916713964
149.519527734773 8.56838185582506
150.05488104883 8.56575559537072
150.590234362887 8.56302819735789
151.125587676944 8.56019936267782
151.660940991001 8.55726878897523
152.889770867906 8.55015561993028
153.425124181963 8.54688759843268
153.960477496021 8.54351650177644
154.495830810078 8.54004201007133
155.031184124135 8.53646380004923
156.26001400104 8.52785647099603
156.795367315096 8.52393414100963
157.330720629154 8.5199066652145
157.866073943211 8.51577370208837
158.401427257268 8.5115349065907
159.630257134173 8.50140318013695
160.16561044823 8.49681314222452
160.700963762287 8.49211574929643
161.236317076344 8.48731063728977
161.771670390402 8.48239743847346
163.000500267307 8.47070906168673
163.535853581363 8.46543702877243
164.071206895421 8.46005528719863
164.606560209478 8.45456344939213
165.141913523535 8.44896112395179
166.37074340044 8.43568174249812
166.906096714497 8.42971250182304
167.441450028554 8.42363104813611
167.976803342611 8.41743696932039
168.512156656668 8.41112984926076
169.740986533573 8.39622291584437
170.27633984763 8.38954028840856
170.811693161687 8.38274278621831
171.347046475744 8.37582997151258
171.882399789802 8.36880140235093
173.111229666707 8.35222807918275
173.646582980763 8.34481487655421
174.181936294821 8.33728397292726
174.717289608878 8.32963490372625
175.252642922935 8.32186720000365
176.48147279984 8.30358625501878
177.016826113897 8.29542423338676
177.552179427954 8.28714151245052
178.087532742011 8.27873759957625
178.622886056068 8.27021199755374
179.851715932973 8.25017969409209
180.38706924703 8.24124950543968
180.922422561087 8.23219543908588
181.457775875145 8.22301697301872
181.993129189202 8.21371358043293
183.221959066107 8.19188356009441
183.757312380164 8.18216470036468
184.292665694221 8.17231859592627
184.828019008278 8.16234469398962
185.363372322335 8.15224243674194
186.59220219924 8.12856559512801
187.127555513297 8.11803634925823
187.662908827354 8.10737629403488
188.198262141411 8.09658484440858
188.733615455468 8.08566141006356
189.962445332373 8.0600857651213
190.497798646431 8.04872314882274
191.033151960488 8.03722595133249
191.568505274545 8.02559355377373
192.103858588602 8.01382533174612
193.332688465507 7.98629588444114
193.868041779564 7.97407558260663
194.403395093621 7.96171671044755
194.938748407678 7.94921861360363
195.474101721735 7.9365806319198
196.70293159864 7.90703921898111
197.238284912697 7.8939355206109
197.773638226754 7.88068903482451
198.308991540811 7.86729907003159
198.844344854869 7.85376492856102
200.073174731773 7.82215006706596
200.608528045831 7.80813579661444
201.143881359888 7.79397428245603
201.679234673945 7.77966479393093
202.214587988002 7.76520659399776
203.443417864907 7.73145331760048
203.978771178964 7.71649976266317
204.514124493021 7.7013942567013
205.049477807078 7.68613602805226
205.584831121135 7.67072429835605
206.81366099804 7.63476398501139
207.349014312097 7.61884082029387
207.884367626154 7.60276073378534
208.419720940212 7.58652291079238
208.955074254269 7.57012652959325
210.183904131174 7.53188672069148
210.719257445231 7.5149619282322
211.254610759288 7.49787496674955
211.789964073345 7.480624976397
212.325317387402 7.46321108995405
213.554147264307 7.4226153008644
214.089500578364 7.40465508652139
214.624853892421 7.38652716585013
215.160207206478 7.36823063163625
215.695560520535 7.34976456893123
216.92439039744 7.30673209105844
217.459743711497 7.28770079731911
217.995097025555 7.26849595569297
218.530450339612 7.24911660929367
219.065803653669 7.22956179312695
220.294633530574 7.18400748771851
220.829986844631 7.16386750295405
221.365340158688 7.14354780976029
221.900693472745 7.12304739919115
222.436046786802 7.10236525380598
223.664876663707 7.0541993379162
224.200229977764 7.03291100227854
224.735583291821 7.01143646344646
225.270936605878 6.98977465795003
225.806289919935 6.9679245134271
227.03511979684 6.91705233865225
227.570473110897 6.8945738469096
228.105826424955 6.87190230729391
228.641179739012 6.84903659928243
229.176533053069 6.82597559305326
230.405362929974 6.77229741791212
230.940716244031 6.74858471963583
231.476069558088 6.72467176283072
232.011422872145 6.70055736734153
232.546776186202 6.67624034330076
233.775606063107 6.61965110045112
234.310959377164 6.59465779811534
234.846312691221 6.56945664428505
235.381666005278 6.54404639656192
235.917019319336 6.51842580241942
237.14584919624 6.45881486229307
237.681202510297 6.43249210802547
238.216555824355 6.4059535105228
238.751909138412 6.37919776252706
239.287262452469 6.35222354623788
240.516092329374 6.28947447915083
241.051445643431 6.26177087109232
241.586798957488 6.2338430128611
242.122152271545 6.20568952974889
242.657505585602 6.17730903609836
243.886335462507 6.1112993754729
244.421688776564 6.08216085496862
244.957042090621 6.05278924599989
245.492395404679 6.02318310388354
246.027748718736 5.99334097259562
247.25657859564 5.92394198263117
247.791931909698 5.89331173379704
248.327285223755 5.86243911123949
248.862638537812 5.83132259789233
249.397991851869 5.79996066498091
250.626821728774 5.72703711695954
251.162175042831 5.69485547055556
251.697528356888 5.66242170348043
252.232881670945 5.62973422405597
252.768234985002 5.5967914285625
253.997064861907 5.52020139099588
254.532418175964 5.48640573500521
255.067771490021 5.45234773630736
255.603124804079 5.4180257266385
256.138478118136 5.38343802540957
257.36730799504 5.30303267446241
257.902661309098 5.26755737433613
258.438014623155 5.23180902282888
258.973367937212 5.19578587346821
259.508721251269 5.15948616723793
260.737551128174 5.0751096253344
261.272904442231 5.03788595753316
261.808257756288 5.00037803398789
262.343611070345 4.96258402885945
262.878964384402 4.92450210363283
264.107794261307 4.83599131591068
264.643147575364 4.79694741917712
265.178500889422 4.75760756088102
265.713854203479 4.71796983526376
266.249207517536 4.67803232386931
267.478037394441 4.58521698424149
268.013390708498 4.54427783399203
268.548744022555 4.50303051338068
269.084097336612 4.46147303695042
269.619450650669 4.4196034066665
270.848280527574 4.32230594773727
271.383633841631 4.27939336009451
271.918987155688 4.23615989417797
272.454340469745 4.19260348603172
272.989693783803 4.14872205941814
274.218523660707 4.04675772344456
274.753876974764 4.00179039676995
275.289230288822 3.95648899544705
275.824583602879 3.9108513794426
276.359936916936 3.86487539695742
277.588766793841 3.75805240851426
278.124120107898 3.71094601187829
278.659473421955 3.663491874849
279.194826736012 3.61568778525202
279.730180050069 3.56753151993381
280.959009926974 3.45565138500974
281.494363241031 3.40631870488105
282.029716555088 3.35662417876035
282.565069869146 3.30656552813027
283.100423183203 3.25614046461315
284.329253060107 3.13899842561132
284.864606374164 3.08734958419988
285.399959688222 3.03532439363854
285.935313002279 2.9829205171395
286.470666316336 2.93013560957715
287.699496193241 2.80752129120048
288.234849507298 2.75346405237645
288.770202821355 2.69901562154149
289.305556135412 2.64417361446909
289.840909449469 2.58893564060597
291.069739326374 2.46063392794058
291.605092640431 2.404074109514
292.140445954489 2.34710799320168
292.675799268546 2.28973316149891
293.211152582603 2.23194719317244
294.439982459508 2.09773939051328
294.975335773564 2.03858140491057
295.510689087622 1.9790018518834
296.046042401679 1.9189982988014
296.581395715736 1.8585683126056
297.810225592641 1.71823363972283
298.345578906698 1.65638118875708
298.880932220755 1.59409186362033
299.416285534812 1.53136323946774
299.951638848869 1.46819289516008
301.180468725775 1.32151038678359
301.715822039831 1.25686734027217
302.251175353889 1.19177223432112
302.786528667946 1.12622268042155
303.321881982003 1.06021629888887
304.550711858908 0.906967183115084
305.086065172965 0.839438675510192
305.621418487022 0.771443241443544
306.156771801079 0.702978563930658
306.692125115136 0.634042341084688
307.920954992041 0.47401298302143
308.456308306098 0.403506766900505
308.991661620155 0.332519317005547
309.527014934213 0.261048430824194
310.06236824827 0.189091928557908
311.291198125175 0.0220774365035267
311.826551439231 -0.0514944634370462
312.361904753289 -0.125561051225542
312.897258067346 -0.200124362958662
313.432611381403 -0.275186402852078
314.661441258308 -0.449377800545858
315.196794572365 -0.52609708468568
315.732147886422 -0.603323303840315
316.267501200479 -0.681058265408755
316.802854514536 -0.759303733971483
318.031684391441 -0.940845423252331
318.567037705498 -1.02078511295977
319.102391019555 -1.10124235547353
319.637744333613 -1.18221865546015
320.17309764767 -1.26371546182965
321.401927524575 -1.45275616247163
321.937280838632 -1.5359777391366
322.472634152689 -1.6197253567421
323.007987466746 -1.70400012999085
323.543340780803 -1.78880310266453
324.772170657708 -1.98545944257586
325.307523971765 -2.07200947281034
325.842877285822 -2.15909131536247
326.378230599879 -2.24670559314865
326.913583913936 -2.33485284056095
328.142413790841 -2.53920065582152
328.677767104898 -2.62910684729662
329.213120418955 -2.71954722335031
329.748473733013 -2.81052179745685
330.28382704707 -2.90203047435205
331.512656923975 -3.11409471577075
332.048010238032 -3.20736135364483
332.583363552089 -3.3011603645312
333.118716866146 -3.39549101803816
333.654070180203 -3.49035245210187
334.882900057108 -3.71009560095325
335.418253371165 -3.80669832603903
335.953606685222 -3.90382653701671
336.488959999279 -4.00147860800865
337.024313313337 -4.09965275580719
338.253143190241 -4.32696168965975
338.788496504299 -4.42684159834949
339.323849818356 -4.52723403070465
339.859203132413 -4.62813629688575
340.39455644647 -4.72954552148633
341.623386323375 -4.96421683073967
342.158739637432 -5.06727390555618
342.694092951489 -5.17082336418118
343.229446265546 -5.27486126891428
343.764799579603 -5.37938346602505
344.993629456508 -5.62110730855013
345.528982770565 -5.72719322948423
346.064336084622 -5.83374302396494
346.59968939868 -5.94075131001939
347.135042712737 -6.04821245758289
348.363872589641 -6.29655515837268
348.899225903699 -6.40546560133607
349.434579217756 -6.51480177731011
349.969932531813 -6.62455665594916
350.50528584587 -6.73472292612554
351.734115722775 -6.98910868603285
352.269469036832 -7.10057528777655
352.804822350889 -7.21241856114794
353.340175664946 -7.3246296228232
353.875528979003 -7.43719927676808
355.104358855908 -7.69689155212778
355.639712169965 -7.81057381177332
356.175065484023 -7.92457149195282
356.71041879808 -8.03887366122702
357.245772112137 -8.15346904614092
358.474601989042 -8.41755239845256
359.009955303099 -8.53302989335763
359.545308617156 -8.64874819168282
360.080661931213 -8.76469414126543
360.61601524527 -8.88085422361514
361.844845122175 -9.14821770846847
362.380198436232 -9.26498312259458
362.915551750289 -9.38190036394027
363.450905064346 -9.49895392578558
363.986258378403 -9.61612791862552
365.215088255308 -9.88545136992843
365.750441569365 -10.0029049581076
366.285794883423 -10.1204063386236
366.82114819748 -10.2379375742953
367.356501511537 -10.355480339823
368.585331388442 -10.6252251820106
369.120684702499 -10.7426714102859
369.656038016556 -10.8600460580214
370.191391330613 -10.9773287608996
370.72674464467 -11.0944987757702
371.955574521575 -11.3629052227826
372.490927835632 -11.4795524142292
373.026281149689 -11.5959935921348
373.561634463746 -11.7122060696188
374.096987777804 -11.8281668083058
375.325817654708 -12.0932594304381
375.861170968765 -12.2082232830366
376.396524282823 -12.3228326001817
