phase.day RVsim
0 5.09616625543351
0.210485227913523 5.10526912432937
0.842436808957245 5.13247346798124
1.47438839000142 5.15949009212388
2.10633997104537 5.18632012036548
2.73829155208932 5.21296466501833
3.37024313313337 5.23942482720502
3.58072836104657 5.24819721491833
4.21267994209074 5.27441327523916
4.84463152313469 5.30044747917382
5.47658310417864 5.32630089130278
6.10853468522271 5.35197456546513
6.74048626626673 5.37746954485898
6.95097149418007 5.38592171020756
7.58292307522424 5.41118008070534
8.21487465626797 5.43626214947456
8.84682623731214 5.46116892495962
9.47877781835609 5.48590140538777
10.1107293994001 5.51046057886428
10.3212146273136 5.51860224036571
10.9531662083573 5.54293190250508
11.5851177894015 5.56709052418363
12.2170693704454 5.59107906044257
12.8490209514895 5.61489845660133
13.4809725325335 5.63854964834719
13.6914577604466 5.64639001057707
14.3234093414908 5.66981841235861
14.9553609225347 5.69308075579804
15.5873125035789 5.7161779451132
16.2192640846229 5.7391108752672
16.8512156656668 5.76188043205294
17.0617008935801 5.76942821053552
17.6936524746243 5.79198134068507
18.3256040556682 5.81437312889731
18.9575556367122 5.83660443099859
19.5895072177561 5.8586760940005
20.2214587988002 5.88058895617949
20.4319440267136 5.88785240086098
21.0638956077573 5.90955485878568
21.6958471888015 5.93110043812325
22.3277987698455 5.95248994859835
22.9597503508895 5.97372419153509
23.5917019319336 5.99480395993167
23.8021871598471 6.00179087729171
24.4341387408908 6.02266593896663
25.066090321935 6.04338834426493
25.698041902979 6.06395885896365
26.3299934840229 6.08437824082831
26.9619450650669 6.10464723968339
27.1724302929802 6.11136501354007
27.8043818740243 6.13143469349516
28.4363334550683 6.15135570934725
29.0682850361122 6.17112878494963
29.7002366171563 6.19075463650962
30.3321881982003 6.2102339726546
30.5426734261137 6.21668958372068
31.1746250071578 6.23597469329828
31.8065765882016 6.25511491163216
32.4385281692457 6.27411092255174
33.0704797502897 6.2929634025834
33.7024313313336 6.31167302101233
33.9129165592472 6.31787306525864
34.5448681402909 6.33639326731184
35.1768197213351 6.35477214144
35.808771302379 6.37301033323034
36.4407228834231 6.39110848128845
37.072674464467 6.40906721729623
37.2831596923802 6.41501792317826
37.9151112734244 6.43279178337644
38.5470628544683 6.45042767868336
39.1790144355123 6.46792621811331
39.8109660165563 6.48528800399975
40.4429175976004 6.5025136320497
40.6534028255137 6.50822087665157
41.2853544065579 6.52526591155531
41.9173059876018 6.54217615298446
42.5492575686458 6.55895217494237
43.1812091496897 6.57559454503313
43.8131607307337 6.59210382451219
44.0236459586472 6.59757314866035
44.6555975396909 6.61390587072275
45.2875491207351 6.6301067872182
45.919500701779 6.64617643859957
46.5514522828231 6.66211535918332
47.1834038638671 6.67792407719681
47.3938890917802 6.68316069959393
48.0258406728244 6.69879665923824
48.6577922538684 6.71430362529056
49.2897438349125 6.72968210601674
49.9216954159565 6.74493260379155
50.5536469970005 6.76005561514274
50.7641322249137 6.76506444556988
51.3960838059579 6.78001827048724
52.0280353870019 6.79484574492519
52.6599869680458 6.80954734623408
53.2919385490899 6.82412354610168
53.9238901301338 6.83857481059421
54.1343753580472 6.84336046222669
54.766326939091 6.85764589403012
55.3982785201351 6.87180745619359
56.0302301011791 6.88584559633577
56.6621816822231 6.89976075662537
57.2941332632672 6.91355337381925
57.5046184911807 6.91812017469983
58.1365700722245 6.93175010306323
58.7685216532686 6.94525848648424
59.4004732343126 6.95864574395044
60.0324248153565 6.97191228919679
60.6643763964006 6.98505853074103
60.8748616243138 6.98941053445085
61.506813205358 7.00239702885418
62.1387647864019 7.01526415256631
62.7707163674459 7.02801229696472
63.4026679484899 7.04064184835726
64.0346195295339 7.05315318801484
64.2451047574473 7.05729418358033
64.8770563384915 7.06964852277502
65.5090079195352 7.08188552036312
66.1409595005794 7.09400554105748
66.7729110816233 7.1060089446703
67.4048626626673 7.11789608614354
67.6153478905808 7.12182960721509
68.2472994716245 7.13356230651553
68.8792510526687 7.1451795530111
69.5112026337126 7.15668168562293
70.1431542147567 7.16806903852756
70.7751057958007 7.17934194118468
70.9855910237138 7.18307127452024
71.617542604758 7.19419211102069
72.249494185802 7.20519924773996
72.8814457668461 7.21609299861147
73.5133973478901 7.22687367296731
74.145348928934 7.2375415755637
74.3558341568473 7.24106976884825
74.9877857378915 7.25158780465658
75.6197373189354 7.2619937620722
76.2516888999794 7.27228793077851
76.8836404810233 7.28247059598881
77.5155920620674 7.29254203846949
77.7260772899808 7.29587190749876
78.3580288710245 7.30579551107195
78.9899804520687 7.31560852980132
79.6219320331127 7.32531122979455
80.2538836141567 7.33490387280871
80.8858351952008 7.34438671627138
81.0963204231143 7.3475208515262
81.728272004158 7.35685771718534
82.3602235852022 7.36608536717251
82.9921751662462 7.37520404463276
83.6241267472901 7.38421398846897
84.2560783283341 7.39311543336083
84.4665635562474 7.39605620599599
85.0985151372915 7.40481337169214
85.7304667183355 7.4134625696529
86.3624182993794 7.42200402061517
86.9943698804235 7.43043794117117
87.6263214614675 7.43876454378559
87.8368066893809 7.44151411105507
88.468758270425 7.44969797445058
89.1007098514688 7.45777499964481
89.7326614325129 7.46574538546405
90.3646130135569 7.47360932667706
90.9965645946009 7.48136701401026
91.2070498225144 7.48392732414858
91.8390014035581 7.49154365707259
92.4709529846023 7.49905416546079
93.1029045656462 7.50645902667147
93.7348561466902 7.5137584140824
94.3668077277342 7.52095249710418
94.5772929556474 7.52332529368161
95.2092445366916 7.53037925501196
95.8411961177355 7.53732829184747
96.4731476987795 7.54417256046768
97.1050992798235 7.55091221323875
97.7370508608676 7.55754739862499
97.9475360887809 7.55973422439235
98.5794876698251 7.56623037141044
99.211439250869 7.57262238231274
99.843390831913 7.57891039263724
100.475342412957 7.5850945340661
101.107293994001 7.59117493443541
101.317779221914 7.59317713467214
101.949730802958 7.59911943293156
102.581682384002 7.6049582734802
103.213633965046 7.61069377140094
103.84558554609 7.61632603796895
104.477537127134 7.62185518065973
104.688022355047 7.62367390603731
105.319973936092 7.62906573778115
105.951925517136 7.63435468166444
106.58387709818 7.63954083255154
107.215828679224 7.64462428153805
107.847780260268 7.64960511595703
108.058265488181 7.65124132492773
108.690217069225 7.65608549608419
109.322168650269 7.66082724183102
109.954120231313 7.66546663700176
110.586071812357 7.67000375269092
111.218023393401 7.67443865625856
111.428508621314 7.67589311697777
112.060460202358 7.68019186275819
112.692411783402 7.68438853907632
113.324363364446 7.68848320087412
113.95631494549 7.69247589937528
114.588266526534 7.69636668208817
114.798751754448 7.69763997387679
115.430703335492 7.70139496299483
116.062654916536 7.70504813273313
116.69460649758 7.70859951823341
117.326558078624 7.71204915093098
117.958509659668 7.71539705855595
118.168994887581 7.71648957290756
118.800946468625 7.71970191043304
119.432898049669 7.72281257318038
120.064849630713 7.72582157653477
120.696801211757 7.72872893217787
121.328752792801 7.73153464808738
121.539238020714 7.73244658922318
122.171189601759 7.73511681807869
122.803141182802 7.73768541140657
123.435092763847 7.74015236483159
124.067044344891 7.74251767026893
124.698995925935 7.74478131592205
124.909481153848 7.74551270089462
125.541432734892 7.74764080199795
126.173384315936 7.74966720134896
126.80533589698 7.75159187476031
127.437287478024 7.75341479432009
128.069239059068 7.75513592838797
128.279724286981 7.75568658673352
128.911675868025 7.7572719777836
129.543627449069 7.75875549500219
130.175579030113 7.76013709429023
130.807530611157 7.76141672780002
131.439482192201 7.76259434392966
132.281919001159 7.76400544976484
132.913870582202 7.76494483026209
133.545822163247 7.765781994199
134.177773744291 7.76651687363476
134.809725325335 7.76714939683937
135.652162134292 7.76783329290358
136.284113715336 7.76822671144171
136.91606529638 7.76851750720527
137.548016877424 7.76870559195363
138.179968458468 7.76879087361269
139.022405267425 7.76874452729048
139.654356848469 7.76858958236791
140.286308429513 7.76833149966142
140.918260010557 7.76797017037368
141.550211591601 7.76750548182003
142.392648400559 7.76672508512535
143.024599981602 7.76601879193707
143.656551562647 7.76520873567947
144.288503143691 7.7642947866902
144.920454724735 7.76327681135594
145.762891533692 7.76175777003612
146.394843114736 7.76049655197891
147.02679469578 7.75913083353314
147.658746276824 7.75766046381043
148.290697857868 7.75608528789779
149.133134666825 7.75382220856002
149.765086247869 7.75200188724566
150.397037828913 7.75007621414762
151.028989409957 7.74804501673626
151.660940991001 7.74590811837327
152.503377799959 7.74289479357859
153.135329381003 7.74051057731266
153.767280962047 7.73802004145697
154.399232543091 7.73542299136937
155.031184124135 7.7327192282043
155.873620933092 7.72894861946572
156.505572514136 7.7259950901428
157.13752409518 7.72293415437513
157.769475676224 7.71976559487883
158.401427257268 7.7164891900607
159.243864066225 7.7119534086733
159.87581564727 7.70842450703324
160.507767228313 7.70478699009256
161.139718809358 7.70104061733613
161.771670390402 7.69718514382206
162.614107199359 7.69187542944414
163.246058780403 7.68776443862705
163.878010361447 7.68354349837403
164.509961942491 7.67921234428649
165.141913523535 7.67477070740963
165.984350332492 7.66867740430445
166.616301913536 7.66397693163491
167.24825349458 7.65916504649582
167.880205075624 7.65424145988747
168.512156656668 7.64920587811182
169.354593465625 7.64231840894952
169.98654504667 7.63702036587323
170.618496627714 7.63160931442095
171.250448208758 7.62608494020566
171.882399789802 7.62044692398669
172.724836598759 7.61275376109604
173.356788179803 7.60684934118414
173.988739760847 7.60083017977006
174.620691341891 7.59469593622145
175.252642922935 7.58844626488313
176.095079731892 7.57993489883144
176.727031312936 7.57341455375961
177.35898289398 7.56677759210194
177.990934475024 7.56002364604729
178.622886056068 7.55315234257792
179.465322865026 7.5438092479465
180.09727444607 7.53666266134728
180.729226027114 7.52939743597258
181.361177608158 7.52201317581958
181.993129189202 7.51450947947977
182.835565998159 7.50432007769017
183.467517579203 7.496536136768
184.099469160247 7.4886313821936
184.731420741291 7.48060538867589
185.363372322335 7.47245772530283
186.205809131292 7.46140634433648
186.837760712337 7.45297310912526
187.46971229338 7.44441672666058
188.101663874424 7.43573674117824
188.733615455468 7.42693269106064
189.576052264426 7.41500252190159
190.20800384547 7.40590719203468
190.839955426514 7.3966862160695
191.471907007558 7.38733910649049
192.103858588602 7.37786536967817
192.946295397559 7.36503841929443
193.578246978603 7.35526729814652
194.210198559647 7.34536785978348
194.842150140691 7.33533958356143
195.474101721735 7.32518194246288
196.316538530692 7.31143898312777
196.948490111737 7.30097743917698
197.580441692781 7.29038472705474
198.212393273825 7.27966029150724
198.844344854869 7.2688035706172
199.686781663826 7.25412408535652
200.31873324487 7.24295651060388
200.950684825914 7.2316547287455
201.582636406958 7.22021814832543
202.214587988002 7.20864617091273
203.057024796959 7.19300829484828
203.688976378003 7.18111806011919
204.320927959047 7.16909038262877
204.952879540091 7.15692463300908
205.584831121135 7.14462017458294
206.427267930093 7.128000631926
207.059219511137 7.11537003886689
207.691171092181 7.10259856128439
208.323122673225 7.0896855300642
208.955074254269 7.07663026842439
209.797511063226 7.05900430485636
210.42946264427 7.04561453442589
211.061414225314 7.03208022153778
211.693365806358 7.01840065536489
212.325317387402 7.00457511702837
213.16775419636 6.98591642718806
213.799705777403 6.97174748442998
214.431657358447 6.95743011432005
215.063608939491 6.94296356221161
215.695560520535 6.92834706499492
216.537997329493 6.90862771477466
217.169948910537 6.89365836964564
217.801900491581 6.87853647375694
218.433852072625 6.86326122638685
219.065803653669 6.84783181791043
219.908240462626 6.82702216124488
220.54019204367 6.81122988525794
221.172143624714 6.79528068422356
221.804095205758 6.77917370893191
222.436046786802 6.76290810079906
223.27848359576 6.74097669061394
223.910435176803 6.724337589044
224.542386757847 6.70753692403156
225.174338338891 6.69057379529832
225.806289919935 6.67344729268873
226.648726728893 6.65036078565844
227.280678309937 6.63284952504497
227.912629890981 6.61517178434668
228.544581472025 6.59732660945958
229.176533053069 6.57931303586492
230.018969862026 6.55503609061297
230.65092144307 6.53662582128179
231.282873024114 6.51804386187059
231.914824605158 6.49928920150533
232.546776186202 6.48036081832335
233.38921299516 6.45485598668395
234.021164576203 6.43551826000026
234.653116157247 6.41600332376204
235.285067738292 6.3963101071831
235.917019319336 6.3764375278766
236.759456128293 6.34966513882404
237.391407709337 6.32936981887936
238.023359290381 6.3088914432226
238.655310871425 6.288228877805
239.287262452469 6.26738097632476
240.129699261426 6.23929901216732
240.76165084247 6.21801418159717
241.393602423514 6.19654010413597
242.025554004558 6.17487557890275
242.657505585602 6.15301939206888
243.49994239456 6.12358335649955
244.131893975604 6.10127521612536
244.763845556648 6.07877127312931
245.395797137692 6.05607025599871
246.027748718736 6.03317087953439
246.870185527693 6.00233365713117
247.502137108737 5.97896641912204
248.134088689781 5.95539643742941
248.766040270825 5.93162236586921
249.397991851869 5.90764284378588
250.240428660826 5.87535455056307
250.87238024187 5.85089032482038
251.504331822914 5.82621600692015
252.136283403958 5.80133017171725
252.768234985002 5.77623137876211
253.61067179396 5.74243920339215
254.242623375004 5.71683787687625
254.874574956048 5.69101867888193
255.506526537092 5.66498010075445
256.138478118136 5.63872061765239
256.980914927093 5.60336865300934
257.612866508137 5.57658776175281
258.244818089181 5.54958076401878
258.876769670225 5.52234606282836
259.508721251269 5.494882044083
260.351158060226 5.45791110880593
260.98310964127 5.42990570239693
261.615061222314 5.40166547257013
262.247012803358 5.37318872893631
262.878964384402 5.34447376300254
263.72140119336 5.30582121284556
264.353352774404 5.27654371122028
264.985304355448 5.24702215957811
265.617255936492 5.21725476875961
266.249207517536 5.18723973046603
267.091644326493 5.14683925929661
267.723595907537 5.11623930175512
268.355547488581 5.08538552876161
268.987499069625 5.05427604675367
269.619450650669 5.02290894194367
270.461887459627 4.98069037237851
271.09383904067 4.9487146588411
271.725790621715 4.91647479496019
272.357742202759 4.88396877687165
272.989693783803 4.85119457935111
273.83213059276 4.80708364318802
274.464082173804 4.77367576784335
275.096033754848 4.73999280579131
275.727985335892 4.70603263671323
276.359936916936 4.67179311774989
277.202373725893 4.62571122657577
277.834325306937 4.59081150424898
278.466276887981 4.55562512405079
279.098228469025 4.52014984282282
279.730180050069 4.48438339364522
280.572616859027 4.43624740028667
281.20456844007 4.3997926860808
281.836520021115 4.36303907353467
282.468471602159 4.32598419006396
283.100423183203 4.28862563806887
283.94285999216 4.23834758991816
284.574811573204 4.20027109297409
285.206763154248 4.16188275243104
285.838714735292 4.12318005953659
286.470666316336 4.08416047924629
287.313103125293 4.03164736496292
287.945054706337 3.99187845755109
288.577006287381 3.95178402030236
289.208957868425 3.9113614014608
289.840909449469 3.8706079216925
290.683346258427 3.81576141337176
291.315297839471 3.7742254369959
291.947249420515 3.73234946704883
292.579201001559 3.69013070192568
293.211152582603 3.64756631116736
294.05358939156 3.5902825048112
294.685540972604 3.54690057559057
295.317492553648 3.50316337522522
295.949444134692 3.45906794551654
296.581395715736 3.41461129816921
297.423832524693 3.35478045622898
298.055784105738 3.30946927256288
298.687735686781 3.26378669082944
299.319687267826 3.21772958973632
299.951638848869 3.1712948167174
300.794075657827 3.10880111764513
301.426027238871 3.06147277407962
302.057978819915 3.01375602235364
302.689930400959 2.96564757201189
303.321881982003 2.91714410025345
304.16431879096 2.85186540145081
304.796270372004 2.80242721381359
305.428221953048 2.75258269371734
306.060173534092 2.70232837614279
306.692125115136 2.65166076280998
307.534561924093 2.58346838517005
308.166513505138 2.53182273345572
308.798465086182 2.47975188393032
309.430416667226 2.42725219257926
310.06236824827 2.37431998143365
310.904805057227 2.30307852590305
311.536756638271 2.24912272314877
312.168708219315 2.19472189528821
312.800659800359 2.13987221623031
313.432611381403 2.08456982553936
314.27504819036 2.01013703488817
314.906999771404 1.95376323244209
315.538951352448 1.8969236029511
316.170902933492 1.83961413699434
316.802854514536 1.78183079082086
317.645291323493 1.7040574731981
318.277242904538 1.64515261544793
318.909194485582 1.58576015235326
319.541146066626 1.52587589233376
320.17309764767 1.465495610026
321.015534456627 1.38422564504385
321.647486037671 1.32267148993419
322.279437618715 1.26060698756603
322.911389199759 1.19802776853537
323.543340780803 1.13492943089145
324.38577758976 1.0499998840653
325.017729170805 0.985673109718524
325.649680751848 0.920812314115954
326.281632332892 0.855412958447904
326.913583913936 0.789470473478919
327.756020722894 0.700711851044529
328.387972303938 0.633484273644548
329.019923884982 0.565698124560782
329.651875466026 0.497348709209162
330.28382704707 0.428431305823838
331.126263856027 0.335667989452698
331.758215437071 0.265406923416512
332.390167018115 0.194561945176332
333.022118599159 0.123128224604156
333.654070180203 0.0511009090504742
334.49650698916 -0.0458481809756335
335.128458570205 -0.119279382457728
335.760410151249 -0.193320501698205
336.392361732293 -0.267976475845842
337.024313313337 -0.343252258139602
337.866750122294 -0.444572711915735
338.498701703338 -0.521313889459973
339.130653284382 -0.598691481788184
339.762604865426 -0.676710494201213
340.39455644647 -0.755375939456494
341.236993255427 -0.861256546380916
341.868944836471 -0.94144968360593
342.500896417515 -1.02230599020031
343.132847998559 -1.10383048792466
343.764799579603 -1.18602819464353
344.607236388561 -1.29665918496707
345.239187969605 -1.38044700609164
345.871139550649 -1.46492470022848
346.503091131693 -1.55009723811578
347.135042712737 -1.63596957190851
347.977479521694 -1.75154030607336
348.609431102738 -1.83906444015781
349.241382683782 -1.92730469987121
349.873334264826 -2.01626591813845
350.50528584587 -2.10595289055249
351.347722654828 -2.22664887150291
351.979674235871 -2.31804748618235
352.611625816915 -2.41018751634384
353.243577397959 -2.50307354686801
353.875528979003 -2.59671010164695
354.717965787961 -2.72270916298028
355.349917369005 -2.8181139534581
355.981868950049 -2.91428383968279
356.613820531093 -3.01122302003522
357.245772112137 -3.10893560237263
358.088208921094 -3.24040310105022
358.720160502138 -3.33993550178354
359.352112083182 -3.44025426007563
359.984063664226 -3.54136301568344
360.61601524527 -3.64326528133387
361.458452054228 -3.78034809867392
362.090403635271 -3.88411456644461
362.722355216315 -3.98868523382686
363.354306797359 -4.09406297010204
363.986258378403 -4.20025047285008
364.828695187361 -4.34306960345459
365.460646768405 -4.45115580286239
366.092598349449 -4.560059397007
366.724549930493 -4.66978222658426
367.356501511537 -4.7803259064919
368.198938320494 -4.92896739447023
368.830889901538 -5.04143110267324
369.462841482582 -5.15471926535063
370.094793063626 -5.26883238350634
